#time(au), sqrt(entropy)(t)
 0.00000000000000e+01  0.00000000000000e+00
 4.13413741709430e+01  5.95696262530928e+07
 8.26827483418859e+01  1.36798788469921e+08
 1.24024122512829e+02  1.99448680942804e+08
 1.65365496683772e+02  2.36630192088267e+08
 2.06706870854715e+02  2.81088865593164e+08
 2.48048245025658e+02  3.42133879254920e+08
 2.89389619196601e+02  3.87080369893148e+08
 3.30730993367544e+02  4.13718240121407e+08
 3.72072367538487e+02  4.52298827674206e+08
 4.13413741709430e+02  4.99909505039890e+08
 4.54755115880373e+02  5.29257208904087e+08
 4.96096490051316e+02  5.47894634302524e+08
 5.37437864222259e+02  5.80041962159217e+08
 5.78779238393201e+02  6.14095725464716e+08
 6.20120612564144e+02  6.30403363859303e+08
 6.61461986735087e+02  6.43244062358868e+08
 7.02803360906030e+02  6.68606106154734e+08
 7.44144735076973e+02  6.90115864171600e+08
 7.85486109247916e+02  6.96903152536543e+08
 8.26827483418859e+02  7.06283539246463e+08
 8.68168857589802e+02  7.25461877330964e+08
 9.09510231760745e+02  7.37232767584372e+08
 9.50851605931688e+02  7.39166264021368e+08
 9.92192980102631e+02  7.48442697071547e+08
 1.03353435427357e+03  7.63113906078942e+08
 1.07487572844452e+03  7.67804169725164e+08
 1.11621710261546e+03  7.68211935047002e+08
 1.15755847678640e+03  7.77984197229766e+08
 1.19889985095735e+03  7.88301911995235e+08
 1.24024122512829e+03  7.88601261798639e+08
 1.28158259929923e+03  7.91450244115580e+08
 1.32292397347017e+03  8.02781874395712e+08
 1.36426534764112e+03  8.09035669664512e+08
 1.40560672181206e+03  8.07677084977995e+08
 1.44694809598300e+03  8.12978074723671e+08
 1.48828947015395e+03  8.23392112718295e+08
 1.52963084432489e+03  8.25231520980717e+08
 1.57097221849583e+03  8.22876659187257e+08
 1.61231359266678e+03  8.29250684460431e+08
 1.65365496683772e+03  8.36352102984831e+08
 1.69499634100866e+03  8.33788330584080e+08
 1.73633771517961e+03  8.31800119772692e+08
 1.77767908935055e+03  8.38337902689638e+08
 1.81902046352149e+03  8.41127597865843e+08
 1.86036183769243e+03  8.35887208371257e+08
 1.90170321186338e+03  8.36300628415620e+08
 1.94304458603432e+03  8.42958077487182e+08
 1.98438596020526e+03  8.42535809142260e+08
 2.02572733437621e+03  8.41258540228381e+08
 2.06706870854715e+03  8.50506879526401e+08
 2.10841008271809e+03  8.58966050056574e+08
 2.14975145688903e+03  8.57812607576828e+08
 2.19109283105998e+03  8.59673176119674e+08
 2.23243420523092e+03  8.70820438792098e+08
 2.27377557940186e+03  8.77216734762502e+08
 2.31511695357281e+03  8.75779263846141e+08
 2.35645832774375e+03  8.83091441019891e+08
 2.39779970191469e+03  8.94925958049377e+08
 2.43914107608563e+03  8.94765593406042e+08
 2.48048245025658e+03  8.90746943022698e+08
 2.52182382442752e+03  8.97732230079636e+08
 2.56316519859846e+03  9.03410330912750e+08
 2.60450657276941e+03  8.95560904318951e+08
 2.64584794694035e+03  8.88977738125677e+08
 2.68718932111129e+03  8.92759945819878e+08
 2.72853069528223e+03  8.89948810422632e+08
 2.76987206945318e+03  8.75251344264352e+08
 2.81121344362412e+03  8.66310920115794e+08
 2.85255481779506e+03  8.66814234614458e+08
 2.89389619196601e+03  8.57403732795900e+08
 2.93523756613695e+03  8.41611981692621e+08
 2.97657894030789e+03  8.35734304242905e+08
 3.01792031447883e+03  8.32213542910500e+08
 3.05926168864978e+03  8.17383405490301e+08
 3.10060306282072e+03  8.03697454137055e+08
 3.14194443699166e+03  8.00555138875642e+08
 3.18328581116260e+03  7.93914984552315e+08
 3.22462718533355e+03  7.77869966118342e+08
 3.26596855950449e+03  7.67304351492245e+08
 3.30730993367543e+03  7.64064254094112e+08
 3.34865130784638e+03  7.52625264802756e+08
 3.38999268201732e+03  7.35284094538330e+08
 3.43133405618826e+03  7.29004552115925e+08
 3.47267543035920e+03  7.24588680971184e+08
 3.51401680453015e+03  7.09662042279566e+08
 3.55535817870109e+03  6.96420623651199e+08
 3.59669955287203e+03  6.93983745298995e+08
 3.63804092704298e+03  6.86213580567609e+08
 3.67938230121392e+03  6.67985648782883e+08
 3.72072367538486e+03  6.55715043166257e+08
 3.76206504955580e+03  6.50369979207856e+08
 3.80340642372675e+03  6.34751163634689e+08
 3.84474779789769e+03  6.12047530992862e+08
 3.88608917206863e+03  5.99367492453589e+08
 3.92743054623958e+03  5.89296467840760e+08
 3.96877192041052e+03  5.67611196068021e+08
 4.01011329458146e+03  5.45235758306894e+08
 4.05145466875240e+03  5.33826821038091e+08
 4.09279604292335e+03  5.21667442653009e+08
 4.13413741709429e+03  5.04842387745134e+08
 4.17547879126523e+03  4.94122816469251e+08
