#time(au), sqrt(entropy)(t)
 0.00000000000000e+01  3.33367157965631e+00
 4.13413741709430e+01  4.84943068640440e+07
 8.26827483418859e+01  1.20173555765694e+08
 1.24024122512829e+02  1.80955776700295e+08
 1.65365496683772e+02  2.17323915182613e+08
 2.06706870854715e+02  2.60511304612938e+08
 2.48048245025658e+02  3.20633471553027e+08
 2.89389619196601e+02  3.65226055678493e+08
 3.30730993367544e+02  3.91072313261228e+08
 3.72072367538487e+02  4.28513405214895e+08
 4.13413741709430e+02  4.75629437033044e+08
 4.54755115880373e+02  5.04561063388899e+08
 4.96096490051316e+02  5.22102619331619e+08
 5.37437864222259e+02  5.53340752438016e+08
 5.78779238393201e+02  5.87133269822780e+08
 6.20120612564144e+02  6.02821195993183e+08
 6.61461986735087e+02  6.14606630257292e+08
 7.02803360906030e+02  6.39592407613938e+08
 7.44144735076973e+02  6.61042002886246e+08
 7.85486109247916e+02  6.67175934144167e+08
 8.26827483418859e+02  6.76093846117730e+08
 8.68168857589802e+02  6.95510117644496e+08
 9.09510231760745e+02  7.06964384654040e+08
 9.50851605931688e+02  7.08021738850430e+08
 9.92192980102631e+02  7.16832025019407e+08
 1.03353435427357e+03  7.31679580125142e+08
 1.07487572844452e+03  7.36171653511841e+08
 1.11621710261546e+03  7.36358549650867e+08
 1.15755847678640e+03  7.46620297260052e+08
 1.19889985095735e+03  7.57379628131320e+08
 1.24024122512829e+03  7.57635089142068e+08
 1.28158259929923e+03  7.59584720185825e+08
 1.32292397347017e+03  7.70803905420213e+08
 1.36426534764112e+03  7.77131781149026e+08
 1.40560672181206e+03  7.75058773165013e+08
 1.44694809598300e+03  7.79377869638552e+08
 1.48828947015395e+03  7.89560531467869e+08
 1.52963084432489e+03  7.91019182412204e+08
 1.57097221849583e+03  7.88092138065174e+08
 1.61231359266678e+03  7.94173797620504e+08
 1.65365496683772e+03  8.01306844909081e+08
 1.69499634100866e+03  7.98470608992622e+08
 1.73633771517961e+03  7.96542458001734e+08
 1.77767908935055e+03  8.03749210646404e+08
 1.81902046352149e+03  8.07069930867794e+08
 1.86036183769243e+03  8.02462167331599e+08
 1.90170321186338e+03  8.04400456601966e+08
 1.94304458603432e+03  8.12778097069454e+08
 1.98438596020526e+03  8.13486383724286e+08
 2.02572733437621e+03  8.11813219255073e+08
 2.06706870854715e+03  8.20399203588726e+08
 2.10841008271809e+03  8.29113513804129e+08
 2.14975145688903e+03  8.28496842624948e+08
 2.19109283105998e+03  8.31786818790208e+08
 2.23243420523092e+03  8.44122894826672e+08
 2.27377557940186e+03  8.49552850476927e+08
 2.31511695357281e+03  8.47157548244899e+08
 2.35645832774375e+03  8.53419795511248e+08
 2.39779970191469e+03  8.64283040622519e+08
 2.43914107608563e+03  8.63442285522240e+08
 2.48048245025658e+03  8.58857763789910e+08
 2.52182382442752e+03  8.65183096421631e+08
 2.56316519859846e+03  8.70323035405884e+08
 2.60450657276941e+03  8.62272278858009e+08
 2.64584794694035e+03  8.55775184488796e+08
 2.68718932111129e+03  8.59666637775222e+08
 2.72853069528223e+03  8.56993272181164e+08
 2.76987206945318e+03  8.42983067550943e+08
 2.81121344362412e+03  8.35542300504639e+08
 2.85255481779506e+03  8.35561750335007e+08
 2.89389619196601e+03  8.25372210628965e+08
 2.93523756613695e+03  8.08382801536330e+08
 2.97657894030789e+03  8.01408318838706e+08
 3.01792031447883e+03  7.97291296949397e+08
 3.05926168864978e+03  7.81839347422848e+08
 3.10060306282072e+03  7.65687242325372e+08
 3.14194443699166e+03  7.60349056085152e+08
 3.18328581116260e+03  7.52489310806111e+08
 3.22462718533355e+03  7.34900135353754e+08
 3.26596855950449e+03  7.22650697763039e+08
 3.30730993367543e+03  7.18674857748122e+08
 3.34865130784638e+03  7.07129038734508e+08
 3.38999268201732e+03  6.89748496766447e+08
 3.43133405618826e+03  6.81835422559057e+08
 3.47267543035920e+03  6.76706033497523e+08
 3.51401680453015e+03  6.60542571274103e+08
 3.55535817870109e+03  6.43788538250419e+08
 3.59669955287203e+03  6.37637135291639e+08
 3.63804092704298e+03  6.27464380255377e+08
 3.67938230121392e+03  6.05392417349998e+08
 3.72072367538486e+03  5.88384132184147e+08
 3.76206504955580e+03  5.80206078549903e+08
 3.80340642372675e+03  5.61801788848360e+08
 3.84474779789769e+03  5.33877808230891e+08
 3.88608917206863e+03  5.16272861069443e+08
 3.92743054623958e+03  5.03335892093801e+08
 3.96877192041052e+03  4.76444280297433e+08
 4.01011329458146e+03  4.46163856517346e+08
 4.05145466875240e+03  4.29650019157904e+08
 4.09279604292335e+03  4.11867812266490e+08
 4.13413741709429e+03  3.80751924480513e+08
 4.17547879126523e+03  3.57240444498060e+08
