#time(au), sqrt(entropy)(t)
 0.00000000000000e+01  0.00000000000000e+00
 4.13413741709430e+01  5.99558015107431e+07
 8.26827483418859e+01  1.47751994308468e+08
 1.24024122512829e+02  2.21208831337491e+08
 1.65365496683772e+02  2.64607410833266e+08
 2.06706870854715e+02  3.15308578308843e+08
 2.48048245025658e+02  3.85046475170145e+08
 2.89389619196601e+02  4.36168626774839e+08
 3.30730993367544e+02  4.65246073749227e+08
 3.72072367538487e+02  5.06719454656486e+08
 4.13413741709430e+02  5.58677062149171e+08
 4.54755115880373e+02  5.90252410580919e+08
 4.96096490051316e+02  6.08668582730095e+08
 5.37437864222259e+02  6.41481323146510e+08
 5.78779238393201e+02  6.77163233999029e+08
 6.20120612564144e+02  6.93312264658094e+08
 6.61461986735087e+02  7.04534255858352e+08
 7.02803360906030e+02  7.29571610969770e+08
 7.44144735076973e+02  7.51318585179254e+08
 7.85486109247916e+02  7.56726334306297e+08
 8.26827483418859e+02  7.64280318976754e+08
 8.68168857589802e+02  7.83045677515773e+08
 9.09510231760745e+02  7.94053101058354e+08
 9.50851605931688e+02  7.93761699155861e+08
 9.92192980102631e+02  8.00993549622519e+08
 1.03353435427357e+03  8.15084718812246e+08
 1.07487572844452e+03  8.18811727724327e+08
 1.11621710261546e+03  8.17433026732346e+08
 1.15755847678640e+03  8.26329078977408e+08
 1.19889985095735e+03  8.36430683289182e+08
 1.24024122512829e+03  8.35719874648873e+08
 1.28158259929923e+03  8.36064040498532e+08
 1.32292397347017e+03  8.46103150094379e+08
 1.36426534764112e+03  8.51715246804573e+08
 1.40560672181206e+03  8.48356095978012e+08
 1.44694809598300e+03  8.50830852123662e+08
 1.48828947015395e+03  8.59682923110348e+08
 1.52963084432489e+03  8.60140311232447e+08
 1.57097221849583e+03  8.55342593849735e+08
 1.61231359266678e+03  8.58991710045700e+08
 1.65365496683772e+03  8.64484190485449e+08
 1.69499634100866e+03  8.60303967515846e+08
 1.73633771517961e+03  8.55794861098140e+08
 1.77767908935055e+03  8.60081473653188e+08
 1.81902046352149e+03  8.61888798165959e+08
 1.86036183769243e+03  8.56106567434470e+08
 1.90170321186338e+03  8.55608009723167e+08
 1.94304458603432e+03  8.61873328788881e+08
 1.98438596020526e+03  8.62598025349538e+08
 2.02572733437621e+03  8.61710207460456e+08
 2.06706870854715e+03  8.70041274887682e+08
 2.10841008271809e+03  8.78805398512031e+08
 2.14975145688903e+03  8.80512115008403e+08
 2.19109283105998e+03  8.86541726783164e+08
 2.23243420523092e+03  8.99921680125265e+08
 2.27377557940186e+03  9.06795158815820e+08
 2.31511695357281e+03  9.07813385717127e+08
 2.35645832774375e+03  9.16886838644529e+08
 2.39779970191469e+03  9.28865637979940e+08
 2.43914107608563e+03  9.30087756895537e+08
 2.48048245025658e+03  9.28772622510437e+08
 2.52182382442752e+03  9.37029805110651e+08
 2.56316519859846e+03  9.43144955195770e+08
 2.60450657276941e+03  9.37316158395887e+08
 2.64584794694035e+03  9.33297257710589e+08
 2.68718932111129e+03  9.38271060872606e+08
 2.72853069528223e+03  9.36585120079299e+08
 2.76987206945318e+03  9.24526437001571e+08
 2.81121344362412e+03  9.18593855764922e+08
 2.85255481779506e+03  9.19205815949828e+08
 2.89389619196601e+03  9.09939188171534e+08
 2.93523756613695e+03  8.94205161672660e+08
 2.97657894030789e+03  8.87923535043949e+08
 3.01792031447883e+03  8.84149505208498e+08
 3.05926168864978e+03  8.69230146357062e+08
 3.10060306282072e+03  8.53529839074255e+08
 3.14194443699166e+03  8.48453781116927e+08
 3.18328581116260e+03  8.40699939720317e+08
 3.22462718533355e+03  8.23051124493452e+08
 3.26596855950449e+03  8.10828974515320e+08
 3.30730993367543e+03  8.07018491256053e+08
 3.34865130784638e+03  7.95192188157231e+08
 3.38999268201732e+03  7.77286689039731e+08
 3.43133405618826e+03  7.69442510135072e+08
 3.47267543035920e+03  7.64321432619822e+08
 3.51401680453015e+03  7.47258290222729e+08
 3.55535817870109e+03  7.29747093415715e+08
 3.59669955287203e+03  7.23744326299673e+08
 3.63804092704298e+03  7.12965407789854e+08
 3.67938230121392e+03  6.89141995356195e+08
 3.72072367538486e+03  6.71222525680042e+08
 3.76206504955580e+03  6.62859989364222e+08
 3.80340642372675e+03  6.42645926710224e+08
 3.84474779789769e+03  6.11992956836859e+08
 3.88608917206863e+03  5.93264771674798e+08
 3.92743054623958e+03  5.79226769961653e+08
 3.96877192041052e+03  5.48921322331232e+08
 4.01011329458146e+03  5.15165744467679e+08
 4.05145466875240e+03  4.97274649331574e+08
 4.09279604292335e+03  4.76877743090876e+08
 4.13413741709429e+03  4.40165217628139e+08
 4.17547879126523e+03  4.12005197326356e+08
