#time(au), s(t), s(t) without exp(iwt)
 0.00000000000000e+01  0.00000000000000e+00  0.00000000000000e+00
 4.13413741709430e+01  4.63670172278285e+08  4.63762298356715e+08
 8.26827483418859e+01  1.92874949050726e+09  1.92999437647749e+09
 1.24024122512829e+02  5.49390582360452e+09  5.49800004464184e+09
 1.65365496683772e+02  8.14564501433416e+09  8.15372608563328e+09
 2.06706870854715e+02  2.95725863474997e+09  2.97210709843790e+09
 2.48048245025658e+02 -4.92176477516027e+09 -4.89562336096281e+09
 2.89389619196601e+02 -7.60628141075799e+09 -7.56478563723823e+09
 3.30730993367544e+02 -2.32779869660534e+10 -2.32232953566452e+10
 3.72072367538487e+02 -6.74095241805723e+10 -6.73405615612073e+10
 4.13413741709430e+02 -1.12698612253281e+11 -1.12601186886978e+11
 4.54755115880373e+02 -1.45817944787436e+11 -1.45696031273428e+11
 4.96096490051316e+02 -2.11881964452040e+11 -2.11749666785079e+11
 5.37437864222259e+02 -3.24114089489701e+11 -3.23957521923922e+11
 5.78779238393201e+02 -4.22450522514265e+11 -4.22265745917973e+11
 6.20120612564144e+02 -4.99154131399538e+11 -4.98957081442635e+11
 6.61461986735087e+02 -6.28876655543202e+11 -6.28671382756007e+11
 7.02803360906030e+02 -8.07934131710586e+11 -8.07724298468418e+11
 7.44144735076973e+02 -9.44318207792836e+11 -9.44095084819973e+11
 7.85486109247916e+02 -1.05111033426192e+12 -1.05087857159486e+12
 8.26827483418859e+02 -1.22715556119861e+12 -1.22694989573983e+12
 8.68168857589802e+02 -1.43700873618187e+12 -1.43680909856577e+12
 9.09510231760745e+02 -1.57039267102115e+12 -1.57017999374719e+12
 9.50851605931688e+02 -1.67747302110791e+12 -1.67729568746515e+12
 9.92192980102631e+02 -1.86260552105515e+12 -1.86245896633330e+12
 1.03353435427357e+03 -2.05126951707391e+12 -2.05112756473535e+12
 1.07487572844452e+03 -2.14186451731779e+12 -2.14175338907199e+12
 1.11621710261546e+03 -2.22250586328508e+12 -2.22241950840172e+12
 1.15755847678640e+03 -2.38054164705356e+12 -2.38047354055813e+12
 1.19889985095735e+03 -2.51047281691321e+12 -2.51043254650624e+12
 1.24024122512829e+03 -2.53911579729791e+12 -2.53907618249247e+12
 1.28158259929923e+03 -2.58408773224393e+12 -2.58405698446072e+12
 1.32292397347017e+03 -2.69792077032658e+12 -2.69791169182290e+12
 1.36426534764112e+03 -2.75494471009373e+12 -2.75492509388341e+12
 1.40560672181206e+03 -2.72694660854263e+12 -2.72692381676605e+12
 1.44694809598300e+03 -2.74260805262792e+12 -2.74258593224548e+12
 1.48828947015395e+03 -2.80672134151817e+12 -2.80667342348559e+12
 1.52963084432489e+03 -2.79486463827951e+12 -2.79480250262869e+12
 1.57097221849583e+03 -2.72576652697180e+12 -2.72568471017413e+12
 1.61231359266678e+03 -2.71634602227567e+12 -2.71621528849028e+12
 1.65365496683772e+03 -2.72837665823830e+12 -2.72820812539343e+12
 1.69499634100866e+03 -2.65735890791570e+12 -2.65716537365908e+12
 1.73633771517961e+03 -2.55786589813820e+12 -2.55762332725154e+12
 1.77767908935055e+03 -2.51994514743565e+12 -2.51963010402438e+12
 1.81902046352149e+03 -2.47908545504910e+12 -2.47872565151952e+12
 1.86036183769243e+03 -2.36264209739299e+12 -2.36225325137766e+12
 1.90170321186338e+03 -2.24139220202447e+12 -2.24092038175743e+12
 1.94304458603432e+03 -2.17426202426132e+12 -2.17371041764152e+12
 1.98438596020526e+03 -2.09493784006552e+12 -2.09436069143503e+12
 2.02572733437621e+03 -1.96293931183051e+12 -1.96231455881338e+12
 2.06706870854715e+03 -1.84161386449885e+12 -1.84091636173163e+12
 2.10841008271809e+03 -1.76580195429171e+12 -1.76504895503987e+12
 2.14975145688903e+03 -1.69298861550391e+12 -1.69221264264694e+12
 2.19109283105998e+03 -1.60047672860816e+12 -1.59969916338606e+12
 2.23243420523092e+03 -1.51979529803285e+12 -1.51895838474111e+12
 2.27377557940186e+03 -1.48401542391593e+12 -1.48313517265684e+12
 2.31511695357281e+03 -1.48828446906643e+12 -1.48747645230522e+12
 2.35645832774375e+03 -1.49827497612277e+12 -1.49749320877958e+12
 2.39779970191469e+03 -1.50629726631007e+12 -1.50548736043254e+12
 2.43914107608563e+03 -1.56566145511764e+12 -1.56493290478107e+12
 2.48048245025658e+03 -1.70740976159176e+12 -1.70680007360675e+12
 2.52182382442752e+03 -1.85983321132208e+12 -1.85930462791427e+12
 2.56316519859846e+03 -1.97577342566194e+12 -1.97532300589653e+12
 2.60450657276941e+03 -2.15287089127680e+12 -2.15253233927158e+12
 2.64584794694035e+03 -2.44492923239904e+12 -2.44477657819601e+12
 2.68718932111129e+03 -2.71801435277845e+12 -2.71800549271905e+12
 2.72853069528223e+03 -2.90715521552391e+12 -2.90722224144179e+12
 2.76987206945318e+03 -3.16876623550758e+12 -3.16900469050359e+12
 2.81121344362412e+03 -3.55390634321006e+12 -3.55433217019178e+12
 2.85255481779506e+03 -3.86198786462554e+12 -3.86251850999881e+12
 2.89389619196601e+03 -4.03955943016586e+12 -4.04019668533843e+12
 2.93523756613695e+03 -4.30320297997287e+12 -4.30393675381660e+12
 2.97657894030789e+03 -4.67494405919826e+12 -4.67577836284110e+12
 3.01792031447883e+03 -4.90063010466320e+12 -4.90154568739846e+12
 3.05926168864978e+03 -4.96936077167114e+12 -4.97024290409568e+12
 3.10060306282072e+03 -5.14264679370301e+12 -5.14350181649686e+12
 3.14194443699166e+03 -5.39438296041613e+12 -5.39524274886490e+12
 3.18328581116260e+03 -5.44269924302134e+12 -5.44346812302212e+12
 3.22462718533355e+03 -5.33699894028575e+12 -5.33763598023492e+12
 3.26596855950449e+03 -5.36196985525528e+12 -5.36245145803402e+12
 3.30730993367543e+03 -5.43298142438920e+12 -5.43330018160281e+12
 3.34865130784638e+03 -5.26303711635802e+12 -5.26323444437325e+12
 3.38999268201732e+03 -4.97589465569744e+12 -4.97586210139500e+12
 3.43133405618826e+03 -4.85256578776165e+12 -4.85224618859977e+12
 3.47267543035920e+03 -4.73487297501194e+12 -4.73440588531636e+12
 3.51401680453015e+03 -4.36848390049650e+12 -4.36785752110256e+12
 3.55535817870109e+03 -3.94909256410243e+12 -3.94819276567046e+12
 3.59669955287203e+03 -3.71091863648634e+12 -3.70979143005796e+12
 3.63804092704298e+03 -3.44157469057666e+12 -3.44033425864592e+12
 3.67938230121392e+03 -2.94147422976816e+12 -2.94014936857382e+12
 3.72072367538486e+03 -2.45325357377846e+12 -2.45176709266532e+12
 3.76206504955580e+03 -2.15429876686555e+12 -2.15267407073585e+12
 3.80340642372675e+03 -1.79005217137123e+12 -1.78846182814864e+12
 3.84474779789769e+03 -1.22654100532908e+12 -1.22499635338236e+12
 3.88608917206863e+03 -7.39110560162475e+11 -7.37514726627111e+11
 3.92743054623958e+03 -4.33432297723566e+11 -4.31858133073011e+11
 3.96877192041052e+03 -3.71702343340484e+10 -3.57507661835119e+10
 4.01011329458146e+03  5.12306264052183e+11  5.13575131598475e+11
 4.05145466875240e+03  9.34496837426662e+11  9.35706759274246e+11
 4.09279604292335e+03  1.18832593346064e+12  1.18942991530318e+12
 4.13413741709429e+03  1.53768222872097e+12  1.53855048075119e+12
 4.17547879126523e+03  1.98973140928353e+12  1.99043972267030e+12
