#time(au), s(t), s(t) without exp(iwt)
 0.00000000000000e+01  0.00000000000000e+00  0.00000000000000e+00
 4.13413741709430e+01 -1.12154074182113e+08 -1.29742745802774e+08
 8.26827483418859e+01  5.42934759776274e+07 -9.78095196698001e+06
 1.24024122512829e+02  4.96151239710991e+08  6.64658555230242e+08
 1.65365496683772e+02  2.56165492109042e+09  2.11219828368076e+09
 2.06706870854715e+02  1.40532674730721e+10  1.21722294631305e+10
 2.48048245025658e+02  3.56161902910930e+10  3.58607338932260e+10
 2.89389619196601e+02  5.40518896039177e+10  5.55591344965187e+10
 3.30730993367544e+02  8.93205113353378e+10  8.38646637185524e+10
 3.72072367538487e+02  1.60486237151039e+11  1.53098645610906e+11
 4.13413741709430e+02  2.35967397618782e+11  2.40299648850629e+11
 4.54755115880373e+02  3.10997366181199e+11  3.13207560744624e+11
 4.96096490051316e+02  4.22845125076068e+11  4.05002233390174e+11
 5.37437864222259e+02  5.81449269142586e+11  5.72903584995985e+11
 5.78779238393201e+02  7.39289182736537e+11  7.54414643031175e+11
 6.20120612564144e+02  8.79161364650387e+11  8.79306822582290e+11
 6.61461986735087e+02  1.07277385956772e+12  1.04799400057947e+12
 7.02803360906030e+02  1.31826254926921e+12  1.31533078797287e+12
 7.44144735076973e+02  1.52382167626505e+12  1.56339161066547e+12
 7.85486109247916e+02  1.69838677559682e+12  1.70270640921871e+12
 8.26827483418859e+02  1.93561836005530e+12  1.90241036449150e+12
 8.68168857589802e+02  2.21055046651125e+12  2.25216454303792e+12
 9.09510231760745e+02  2.39322839557654e+12  2.46000822515007e+12
 9.50851605931688e+02  2.53693172633496e+12  2.53652099962254e+12
 9.92192980102631e+02  2.76548661810988e+12  2.77278126539062e+12
 1.03353435427357e+03  2.97232512133427e+12  3.05895061610829e+12
 1.07487572844452e+03  3.06725188416268e+12  3.15250269032839e+12
 1.11621710261546e+03  3.14227829441764e+12  3.15826499605155e+12
 1.15755847678640e+03  3.27144335095772e+12  3.33709220885797e+12
 1.19889985095735e+03  3.38090455011208e+12  3.49960088442985e+12
 1.24024122512829e+03  3.35477760307687e+12  3.43668398255969e+12
 1.28158259929923e+03  3.31052288019923e+12  3.39334800590466e+12
 1.32292397347017e+03  3.36618871567164e+12  3.43633835931522e+12
 1.36426534764112e+03  3.34405461760138e+12  3.47454883195409e+12
 1.40560672181206e+03  3.19695240631052e+12  3.33463533849510e+12
 1.44694809598300e+03  3.10003818848221e+12  3.11898308647709e+12
 1.48828947015395e+03  3.05771379992720e+12  3.19323202901273e+12
 1.52963084432489e+03  2.94313211868613e+12  3.09001098658948e+12
 1.57097221849583e+03  2.74502387379871e+12  2.75457151512449e+12
 1.61231359266678e+03  2.59370245640487e+12  2.72924014926532e+12
 1.65365496683772e+03  2.51215169844586e+12  2.59677661656283e+12
 1.69499634100866e+03  2.34913158567634e+12  2.36481314851035e+12
 1.73633771517961e+03  2.11930466385583e+12  2.25368831630486e+12
 1.77767908935055e+03  1.97312316776114e+12  1.97535132140374e+12
 1.81902046352149e+03  1.86627032056163e+12  1.88869447772728e+12
 1.86036183769243e+03  1.68153526345853e+12  1.78480734672827e+12
 1.90170321186338e+03  1.46953267347289e+12  1.41458333895866e+12
 1.94304458603432e+03  1.33072146665399e+12  1.36198690412710e+12
 1.98438596020526e+03  1.22381931735664e+12  1.26607832463069e+12
 2.02572733437621e+03  1.05739322010874e+12  9.83713732202595e+11
 2.06706870854715e+03  8.77715736853948e+11  9.05631602004224e+11
 2.10841008271809e+03  7.73414381470553e+11  7.55367329399093e+11
 2.14975145688903e+03  7.01442073498641e+11  6.38936419424403e+11
 2.19109283105998e+03  5.90840498770779e+11  5.96067016561450e+11
 2.23243420523092e+03  4.85737711336662e+11  4.46921061523263e+11
 2.27377557940186e+03  4.50441445100768e+11  4.04646679608113e+11
 2.31511695357281e+03  4.66569237241596e+11  4.39457771755407e+11
 2.35645832774375e+03  4.77540660578002e+11  4.70087881395588e+11
 2.39779970191469e+03  4.80076073067773e+11  4.47156521991412e+11
 2.43914107608563e+03  5.65942533298767e+11  5.28566030448861e+11
 2.48048245025658e+03  7.42318206716829e+11  7.82771875396307e+11
 2.52182382442752e+03  8.92261591896412e+11  8.71432658455916e+11
 2.56316519859846e+03  1.04469315895976e+12  1.07114458848513e+12
 2.60450657276941e+03  1.28966594763449e+12  1.36541397728369e+12
 2.64584794694035e+03  1.60751854770639e+12  1.58113883142611e+12
 2.68718932111129e+03  1.92925595594340e+12  2.08477017798037e+12
 2.72853069528223e+03  2.19169978049534e+12  2.31956835657447e+12
 2.76987206945318e+03  2.53116785253567e+12  2.51420928952813e+12
 2.81121344362412e+03  3.00357507480482e+12  3.25840384440032e+12
 2.85255481779506e+03  3.35922266101892e+12  3.55914576559462e+12
 2.89389619196601e+03  3.63744505833012e+12  3.74194377511054e+12
 2.93523756613695e+03  4.03797992693548e+12  4.32455807462287e+12
 2.97657894030789e+03  4.45577915233257e+12  4.67865892986166e+12
 3.01792031447883e+03  4.75691531117850e+12  5.07670648978012e+12
 3.05926168864978e+03  4.94695274332434e+12  5.28985351001428e+12
 3.10060306282072e+03  5.19258385495013e+12  5.40572905556382e+12
 3.14194443699166e+03  5.49938457965589e+12  5.95047427550154e+12
 3.18328581116260e+03  5.58294516356184e+12  6.04499205992733e+12
 3.22462718533355e+03  5.52690542399630e+12  5.82351509348223e+12
 3.26596855950449e+03  5.59545593671989e+12  6.01939252666693e+12
 3.30730993367543e+03  5.63364053917255e+12  6.16565703526773e+12
 3.34865130784638e+03  5.43124583269608e+12  5.90081682536494e+12
 3.38999268201732e+03  5.12884184682142e+12  5.51718942581809e+12
 3.43133405618826e+03  4.94750876386971e+12  5.43950440903395e+12
 3.47267543035920e+03  4.72821528859878e+12  5.27981271633139e+12
 3.51401680453015e+03  4.26048932752628e+12  4.70737373997292e+12
 3.55535817870109e+03  3.75431872739774e+12  4.18877143580675e+12
 3.59669955287203e+03  3.38276226091967e+12  3.85368430190717e+12
 3.63804092704298e+03  2.97314564613366e+12  3.46179806554275e+12
 3.67938230121392e+03  2.35897250300926e+12  2.77899259677931e+12
 3.72072367538486e+03  1.72710562850026e+12  2.08822730963296e+12
 3.76206504955580e+03  1.30273366353802e+12  1.70516179178209e+12
 3.80340642372675e+03  8.27863044056443e+11  1.20617640532996e+12
 3.84474779789769e+03  1.48737184572239e+11  4.60984229752120e+11
 3.88608917206863e+03 -4.17467659318123e+11 -1.63244794322203e+11
 3.92743054623958e+03 -8.09985618688921e+11 -5.45431024054053e+11
 3.96877192041052e+03 -1.26123962004896e+12 -1.00333637220933e+12
 4.01011329458146e+03 -1.81334565291845e+12 -1.66110236966492e+12
 4.05145466875240e+03 -2.27658817861245e+12 -2.13936464731554e+12
 4.09279604292335e+03 -2.53421542035088e+12 -2.39325792766519e+12
 4.13413741709429e+03 -2.82012740032812e+12 -2.72723113803594e+12
 4.17547879126523e+03 -3.23746563696360e+12 -3.18351705562702e+12
